0,1,2,3,4,5,6,7,8,9,10,11,12,13,14,15,16,17,18,19,20,21,22,23,24,25,26,27,28,29,30,31,32,33,34,35,36,37,38,39,40,41,42,43,44,45,46,47,48,49,50,51,52,53,54,55,56,57,58,59,60,61,62,63,64,65,66,67,68,69,70,71,72,73,74,75,76,77,78,79,80,81,82,83,84,85,86,87,88,89,90,91,92,93,94,95,96,97,98,99,100,101,102,103,104,105,106,107,108,109,110,111,112,113,114,115,116,117,118,119,120,121,122,123,124,125,126,127,128,129,130,131,132,133,134,135,136,137,138,139,140,141,142,143,144,145,146,147,148,149,150,151,152,153,154,155,156,157,158,159,160,161,162,163,164,165,166,167,168,169,170,171,172,173,174,175,176,177,178,179,180,181,182,183,184,185,186,187,188,189,190,191,192,193,194,195,196,197,198,199,200,201,202,203,204,205,206,207,208,209,210,211,212,213,214,215,216,217,218,219,220,221,222,223,224,225,226,227,228,229,230,231,232,233,234,235,236,237,238,239,240,241,242,243,244,245,246,247,248,249,250,251,252,253,254,255,256,257,258,259,260,261,262,263,264,265,266,267,268,269,270,271,272,273,274,275,276,277,278,279,280,281,282,283,284,285,286,287,288,289,290,291,292,293,294,295,296,297,298,299,300,301,302,303,304,305,306,307,308,309,310,311,312,313,314,315,316,317,318,319,320,321,322,323,324,325,326,327,328,329,330,331,332,333,334,335,336,337,338,339,340,341,342,343,344,345,346,347,348,349,350,351,352,353,354,355,356,357,358,359,360,361,362,363,364,365,366,367,368,369,370,371,372,373,374,375,376,377,378,379,380,381,382,383,384,385,386,387,388,389,390,391,392,393,394,395,396,397,398,399,400,401,402,403,404,405,406,407,408,409,410,411,412,413,414,415,416,417,418,419,420,421,422,423,424,425,426,427,428,429,430,431,432,433,434,435,436,437,438,439,440,441,442,443,444,445,446,447,448,449,450,451,452,453,454,455,456,457,458,459,460,461,462,463,464,465,466,467,468,469,470,471,472,473,474,475,476,477,478,479,480,481,482,483,484,485,486,487,488,489,490,491,492,493,494,495,496,497,498,499,500,501,502,503,504,505,506,507,508,509,510,511,512,513,514,515,516,517,518,519,520,521,522,523,524,525,526,527,528,529,530,531,532,533,534,535,536,537,538,539,540,541,542,543,544,545,546,547,548,549,550,551,552,553,554,555,556,557,558,559,560,561,562,563,564,565,566,567,568,569,570,571,572,573,574,575,576,577,578,579,580,581,582,583,584,585,586,587,588,589,590,591,592,593,594,595,596,597,598,599,600,601,602,603,604,605,606,607,608,609,610,611,612,613,614,615,616,617,618,619,620,621,622,623,624,625,626,627,628,629,630,631,632,633,634,635,636,637,638,639,640,641,642,643,644,645,646,647,648,649,650,651,652,653,654,655,656,657,658,659,660,661,662,663,664,665,666,667,668,669,670,671,672,673,674,675,676,677,678,679,680,681,682,683,684,685,686,687,688,689,690,691,692,693,694,695,696,697,698,699,700,701,702,703,704,705,706,707,708,709,710,711,712,713,714,715,716,717,718,719,720,721,722,723,724,725,726,727,728,729,730,731,732,733,734,735,736,737,738,739,740,741,742,743,744,745,746,747,748,749,750,751,752,753,754,755,756,757,758,759,760,761,762,763,764,765,766,767,768,769,770,771,772,773,774,775,776,777,778,779,780,781,782,783,784,785,786,787,788,789,790,791,792,793,794,795,796,797,798,799,800,801,802,803,804,805,806,807,808,809,810,811,812,813,814,815,816,817,818,819,820,821,822,823,824,825,826,827,828,829,830,831,832,833,834,835,836,837,838,839,840,841,842,843,844,845,846,847,848,849,850,851,852,853,854,855,856,857,858,859,860,861,862,863,864,865,866,867,868,869,870,871,872,873,874,875,876,877,878,879,880,881,882,883,884,885,886,887,888,889,890,891,892,893,894,895,896,897,898,899,900,901,902,903,904,905,906,907,908,909,910,911,912,913,914,915,916,917,918,919,920,921,922,923,924,925,926,927,928,929,930,931,932,933,934,935,936,937,938,939,940,941,942,943,944,945,946,947,948,949,950,951,952,953,954,955,956,957,958,959,960,961,962,963,964,965,966,967,968,969,970,971,972,973,974,975,976,977,978,979,980,981,982,983,984,985,986,987,988,989,990,991,992,993,994,995,996,997,998,999,1000,1001,1002,1003,1004,1005,1006,1007,1008,1009,1010,1011,1012,1013,1014,1015,1016,1017,1018,1019,1020,1021,1022,1023,1024,1025,1026,1027,1028,1029,1030,1031,1032,1033,1034,1035,1036,1037,1038,1039,1040,1041,1042,1043,1044,1045,1046,1047,1048,1049,1050,1051,1052,1053,1054,1055,1056,1057,1058,1059,1060,1061,1062,1063,1064,1065,1066,1067,1068,1069,1070,1071,1072,1073,1074,1075,1076,1077,1078,1079,1080,1081,1082,1083,1084,1085,1086,1087,1088,1089,1090,1091,1092,1093,1094,1095,1096,1097,1098,1099,1100,1101,1102,1103,1104,1105,1106,1107,1108,1109,1110,1111,1112,1113,1114,1115,1116,1117,1118,1119,1120,1121,1122,1123,1124,1125,1126,1127,1128,1129,1130,1131,1132,1133,1134,1135,1136,1137,1138,1139,1140,1141,1142,1143,1144,1145,1146,1147,1148,1149,1150,1151,1152,1153,1154,1155,1156,1157,1158,1159,1160,1161,1162,1163,1164,1165,1166,1167,1168,1169,1170,1171,1172,1173,1174,1175,1176,1177,1178,1179,1180,1181,1182,1183,1184,1185,1186,1187,1188,1189,1190,1191,1192,1193,1194,1195,1196,1197,1198,1199,1200,1201,1202,1203,1204,1205,1206,1207,1208,1209,1210,1211,1212,1213,1214,1215,1216,1217,1218,1219,1220,1221,1222,1223,1224,1225,1226,1227,1228,1229,1230,1231,1232,1233,1234,1235,1236,1237,1238,1239,1240,1241,1242,1243,1244,1245,1246,1247,1248,1249,1250,1251,1252,1253,1254,1255,1256,1257,1258,1259,1260,1261,1262,1263,1264,1265,1266,1267,1268,1269,1270,1271,1272,1273,1274,1275,1276,1277,1278,1279,1280,1281,1282,1283,1284,1285,1286,1287,1288,1289,1290,1291,1292,1293,1294,1295,1296,1297,1298,1299,1300,1301,1302,1303,1304,1305,1306,1307,1308,1309,1310,1311,1312,1313,1314,1315,1316,1317,1318,1319,1320,1321,1322,1323,1324,1325,1326,1327,1328,1329,1330,1331,1332,1333,1334,1335,1336,1337,1338,1339,1340,1341,1342,1343,1344,1345,1346,1347,1348,1349,1350,1351,1352,1353,1354,1355,1356,1357,1358,1359,1360,1361,1362,1363,1364,1365,1366,1367,1368,1369,1370,1371,1372,1373,1374,1375,1376,1377,1378,1379,1380,1381,1382,1383,1384,1385,1386,1387,1388,1389,1390,1391,1392,1393,1394,1395,1396,1397,1398,1399,1400,1401,1402,1403,1404,1405,1406,1407,1408,1409,1410,1411,1412,1413,1414,1415,1416,1417,1418,1419,1420,1421,1422,1423,1424,1425,1426,1427,1428,1429,1430,1431,1432,1433,1434,1435,1436,1437,1438,1439,1440,1441,1442,1443,1444,1445,1446,1447,1448,1449,1450,1451,1452,1453,1454,1455,1456,1457,1458,1459,1460,1461,1462,1463,1464,1465,1466,1467,1468,1469,1470,1471,1472,1473,1474,1475,1476,1477,1478,1479,1480,1481,1482,1483,1484,1485,1486,1487,1488,1489,1490,1491,1492,1493,1494,1495,1496,1497,1498,1499,1500,1501,1502,1503,1504,1505,1506,1507,1508,1509,1510,1511,1512,1513,1514,1515,1516,1517,1518,1519,1520,1521,1522,1523,1524,1525,1526,1527,1528,1529,1530,1531,1532,1533,1534,1535,1536,1537,1538,1539,1540,1541,1542,1543,1544,1545,1546,1547,1548,1549,1550,1551,1552,1553,1554,1555,1556,1557,1558,1559,1560,1561,1562,1563,1564,1565,1566,1567,1568,1569,1570,1571,1572,1573,1574,1575,1576,1577,1578,1579,1580,1581,1582,1583,1584,1585,1586,1587,1588,1589,1590,1591,1592,1593,1594,1595,1596,1597,1598,1599,1600,1601,1602,1603,1604,1605,1606,1607,1608,1609,1610,1611,1612,1613,1614,1615,1616,1617,1618,1619,1620,1621,1622,1623,1624,1625,1626,1627,1628,1629,1630,1631,1632,1633,1634,1635,1636,1637,1638,1639,1640,1641,1642,1643,1644,1645,1646,1647,1648,1649,1650,1651,1652,1653,1654,1655,1656,1657,1658,1659,1660,1661,1662,1663,1664,1665,1666,1667,1668,1669,1670,1671,1672,1673,1674,1675,1676,1677,1678,1679,1680,1681,1682,1683,1684,1685,1686,1687,1688,1689,1690,1691,1692,1693,1694,1695,1696,1697,1698,1699,1700,1701,1702,1703,1704,1705,1706,1707,1708,1709,1710,1711,1712,1713,1714,1715,1716,1717,1718,1719,1720,1721,1722,1723,1724,1725,1726,1727,1728,1729,1730,1731,1732,1733,1734,1735,1736,1737,1738,1739,1740,1741,1742,1743,1744,1745,1746,1747,1748,1749,1750,1751,1752,1753,1754,1755,1756,1757,1758,1759,1760,1761,1762,1763,1764,1765,1766,1767,1768,1769,1770,1771,1772,1773,1774,1775,1776,1777,1778,1779,1780,1781,1782,1783,1784,1785,1786,1787,1788,1789,1790,1791,1792,1793,1794,1795,1796,1797,1798,1799,1800,1801,1802,1803,1804,1805,1806,1807,1808,1809,1810,1811,1812,1813,1814,1815,1816,1817,1818,1819,1820,1821,1822,1823,1824,1825,1826,1827,1828,1829,1830,1831,1832,1833,1834,1835,1836,1837,1838,1839,1840,1841,1842,1843,1844,1845,1846,1847,1848,1849,1850,1851,1852,1853,1854,1855,1856,1857,1858,1859,1860,1861,1862,1863,1864,1865,1866,1867,1868,1869,1870,1871,1872,1873,1874,1875,1876,1877,1878,1879,1880,1881,1882,1883,1884,1885,1886,1887,1888,1889,1890,1891,1892,1893,1894,1895,1896,1897,1898,1899,1900,1901,1902,1903,1904,1905,1906,1907,1908,1909,1910,1911,1912,1913,1914,1915,1916,1917,1918,1919,1920,1921,1922,1923,1924,1925,1926,1927,1928,1929,1930,1931,1932,1933,1934,1935,1936,1937,1938,1939,1940,1941,1942,1943,1944,1945,1946,1947,1948,1949,1950,1951,1952,1953,1954,1955,1956,1957,1958,1959,1960,1961,1962,1963,1964,1965,1966,1967,1968,1969,1970,1971,1972,1973,1974,1975,1976,1977,1978,1979,1980,1981,1982,1983,1984,1985,1986,1987,1988,1989,1990,1991,1992,1993,1994,1995,1996,1997,1998,1999,2000,2001,2002,2003,2004,2005,2006,2007,2008,2009,2010,2011,2012,2013,2014,2015,2016,2017,2018,2019,2020,2021,2022,2023,2024,2025,2026,2027,2028,2029,2030,2031,2032,2033,2034,2035,2036,2037,2038,2039,2040,2041,2042,2043,2044,2045,2046,2047,2048,2049,2050,2051,2052,2053,2054,2055,2056,2057,2058,2059,2060,2061,2062,2063,2064,2065,2066,2067,2068,2069,2070,2071,2072,2073,2074,2075,2076,2077,2078,2079,2080,2081,2082,2083,2084,2085,2086,2087,2088,2089,2090,2091,2092,2093,2094,2095,2096,2097,2098,2099
127745,127768,127820,127891,127928,127956,127910,127778,127645,127551,127510,127500,127527,127593,127628,127665,127719,127768,127812,127864,127922,127968,128028,128078,128064,127918,127752,127639,127566,127524,127521,127545,127565,127547,127555,127577,127601,127636,127694,127746,127810,127876,127932,127881,127726,127597,127514,127480,127476,127492,127526,127529,127556,127573,127602,127644,127639,127663,127684,127722,127757,127662,127475,127339,127269,127252,127275,127336,127377,127390,127420,127462,127497,127523,127572,127594,127633,127664,127609,127456,127309,127203,127174,127167,127199,127257,127289,127310,127315,127341,127376,127419,127456,127494,127526,127533,127395,127157,126982,126887,126859,126852,126896,126964,127001,127020,127062,127118,127181,127255,127300,127368,127411,127467,127449,127261,127052,126934,126866,126856,126884,126940,126968,127003,127027,127068,127111,127158,127222,127281,127324,127364,127401,127326,127098,126902,126807,126763,126785,126826,126879,126920,126948,126978,127024,127077,127138,127206,127282,127360,127417,127417,127257,127035,126888,126853,126847,126884,126929,126980,127015,127051,127093,127137,127183,127234,127289,127349,127387,127448,127508,127513,127360,127124,126948,126860,126826,126846,126884,126938,126971,126996,127020,127054,127087,127125,127181,127225,127281,127333,127388,127446,127464,127330,127110,126946,126896,126883,126892,126951,127015,127052,127078,127103,127152,127180,127192,127242,127294,127334,127396,127475,127516,127439,127277,127137,127075,127072,127098,127150,127189,127219,127257,127299,127341,127405,127467,127513,127531,127568,127612,127633,127529,127350,127197,127126,127097,127075,127095,127123,127162,127182,127197,127227,127264,127293,127338,127390,127439,127477,127508,127529,127437,127258,127096,127008,126960,126944,126981,127043,127053,127079,127085,127111,127147,127192,127242,127293,127350,127398,127452,127472,127331,127129,126978,126872,126825,126794,126818,126853,126858,126861,126873,126904,126939,126981,127045,127115,127168,127205,127265,127198,127017,126861,126786,126779,126793,126876,126931,126956,126984,127040,127056,127096,127162,127210,127256,127321,127384,127334,127158,126963,126842,126793,126807,126825,126853,126863,126887,126905,126932,126972,126993,127021,127056,127092,127123,127120,126984,126779,126601,126499,126463,126464,126496,126511,126533,126535,126554,126595,126625,126676,126720,126791,126837,126896,126934,126833,126612,126430,126357,126329,126363,126407,126488,126534,126567,126642,126720,126813,126890,126995,127113,127270,127361,127402,127333,127129,126959,126882,126871,126861,126896,126925,126923,126904,126930,127012,127117,127204,127278,127399,127531,127612,127424,127203,127043,126952,126899,126888,126890,126898,126883,126881,126857,126840,126838,126855,126898,126930,127079,126980,126937,126899,126889,126904,126934,126942,126940,126961,126981,126979,126995,127031,127079,127108,127112,127154,127177,127119,127025,126927,126895,126889,126887,126908,126933,126950,126946,126970,126985,126998,127002,127019,127026,127028,127020,126925,126812,126666,126538,126453,126415,126409,126448,126509,126544,126577,126627,126667,126724,126787,126843,126882,126927,126971,127013,126956,126812,126675,126565,126492,126441,126420,126409,126407,126402,126388,126400,126426,126497,126578,126632,126695,126760,126815,126836,126706,126560,126438,126396,126370,126380,126406,126450,126458,126442,126439,126465,126494,126541,126564,126597,126635,126663,126644,126520,126341,126229,126173,126967,126976,127013,127069,127125,127165,127210,127242,127187,127003,126809,126722,126658,126627,126641,126718,126866,126995,127059,127105,127169,127223,127276,127312,127341,127368,127425,127407,127265,127106,127005,126970,126987,126998,126985,126962,126961,126974,127029,127047,127040,127055,127068,127094,127002,126799,126618,126552,126552,126573,126633,126680,126714,126761,126823,126890,126950,127006,127075,127127,127161,127136,126962,126751,126613,126535,126492,126500,126535,126568,126617,126676,126713,126722,126741,126771,126822,126881,126927,126970,126873,126669,126502,126451,126461,126513,126618,126709,126770,126806,126838,126863,126884,126933,126977,127003,127024,127038,127056,126972,126783,126715,126730,126749,126814,126898,126962,127020,127061,127084,127142,127210,127278,127359,127444,127518,127562,127613,127652,127521,127243,127016,126911,126882,126881,126929,126995,127049,127068,127103,127139,127196,127365,127410,127454,127484,127535,127568,127525,127279,127011,126818,126737,126699,126716,126774,126808,126830,126855,126889,126912,126969,127028,127079,127136,127191,127233,127265,127110,126856,126645,126557,126563,126602,126664,126712,126724,126741,126773,126795,126832,126894,126949,126996,127036,127098,127149,127060,126787,126519,126394,126369,126384,126436,126526,126602,126650,126710,126782,126858,126956,127049,127148,127239,127345,127418,127513,127497,127317,127167,125862,125948,125939,125709,125444,125288,125219,125225,125245,125243,125230,125224,125228,125251,125308,125340,125395,125448,125480,125524,125572,125604,125495,125229,125045,124964,124966,124979,125056,125142,125210,125294,125610,125721,125829,125921,125983,126037,126082,126108,126005,125727,125497,125389,125367,125411,125462,125491,125486,125484,125504,125546,125606,125683,125782,125867,125914,125950,125864,125605,125444,125383,125393,125445,125551,125676,125744,125748,125788,125847,125915,125993,126048,126115,126191,126248,126268,126107,125850,125648,125532,125470,125449,125498,125564,125625,125696,125786,125883,125968,126077,126198,126315,126422,126528,126658,126652,126486,126300,126180,127611,127604,127504,127350,127266,127254,127276,127329,127411,127473,127511,127534,127556,127590,127642,127676,127712,127731,127768,127822,127773,127605,127442,127365,127319,127308,127276,127248,127238,127216,127223,127314,127470,127516,127569,127578,127614,127624,127521,127338,127216,127133,127071,127049,127052,127071,127049,127027,127019,127040,127061,127087,127131,127150,127180,127209,127131,126935,126709,126575,126537,126532,126585,126644,126683,126698,126690,126722,126773,126827,126895,126932,126973,126973,126817,126584,126442,126405,126405,126434,126514,126580,126615,126626,126668,126731,126790,126849,126907,126974,127037,127097,127010,126790,126601,126510,126470,126462,126515,126564,126593,126599,126605,126619,126662,126712,126761,126815,126876,126932,126988,126989,126821,126637,126537,126527,126547,126606,126692,126750,126782,126801,126831,126868,126926,126992,127033,127086,127142,127177,127157,126998,126670,126707,126736,126764,126806,126861,126931,126995,127053,127098,127149,127149,126975,126786,126676,126651,126671,126735,126816,126853,126874,126880,126904,126940,126989,127035,127083,127118,127174,127202,127102,126844,126641,126532,126515,126538,126591,126683,126731,126748,126797,126845,126910,126978,127052,127119,127176,127230,127262,127224,127021,126805,126702,126671,126693,126768,126848,126894,126920,126950,127001,127066,127116,127179,127238,127280,127317,127359,127389,127319,127122,126926,126839,126799,126789,126831,126874,126894,126925,126944,126973,127019,127084,127148,127210,127262,127315,127349,127215,127008,126855,126788,126776,126792,126841,126883,126908,126910,126933,126986,127257,127287,127178,126956,126768,126692,126677,126672,126712,126774,126797,126799,126822,126855,126886,126903,126949,127003,127028,127065,127085,126976,126746,126525,126394,126379,126367,126437,126491,126531,126547,126593,126624,126666,126725,126795,126851,126896,126932,126981,126969,126777,126537,126386,126343,126363,126415,126467,126508,126535,126547,126594,126648,126706,126770,126834,126901,126982,126987,126813,126557,126412,126395,126413,126467,126563,126636,126689,126708,126760,126806,126855,126916,126972,127009,127042,127101,127021,126748,126484,126342,126310,126322,126372,126449,126504,126537,126551,126582,126628,126687,126743,126789,126831,126870,126927,126901,126657,126397,126261,126474,126513,126552,126601,126650,126705,126789,126860,126919,126997,126942,126714,126512,126419,126402,126429,126528,126634,126695,126729,126778,126829,126889,126959,127010,127074,127140,127144,126956,126720,126568,126544,126575,126654,126733,126794,126837,126864,126917,126963,127033,127104,127172,127221,127278,127271,127057,126763,126595,126526,126516,126541,126623,126701,126735,126756,126820,126880,126945,127011,127077,127139,127193,127245,127249,127051,126816,126676,126650,126642,126676,126742,126797,126825,126847,126877,126925,126977,127048,127103,127166,127232,127296,127312,127152,126947,126834,126804,126812,126868,126951,126999,127007,127006,127048,127087,127116,127173,127216,127271,126816,126794,126819,126865,126925,126955,126992,127038,127108,127185,127251,127318,127382,127438,127491,127546,127481,127268,127071,126951,126904,126905,126963,127026,127070,127084,127115,127158,127206,127258,127308,127371,127428,127484,127535,127503,127313,127089,126961,126921,126923,126964,127019,127059,127094,127135,127183,127222,127271,127322,127371,127426,127483,127483,127292,127080,126967,126946,126956,127009,127071,127112,127134,127137,127176,127228,127282,127348,127377,127408,127496,127585,127441,127258,127157,127126,127131,127159,127231,127284,127313,127323,127361,127414,127477,127538,127600,127647,127714,127768,127742,127531,127313,127188,127139,127130,127160,127206,127246,127273,127497,127546,127569,127611,127627,127570,127352,127114,126979,126962,126967,127048,127115,127162,127169,127209,127267,127327,127387,127458,127525,127599,127636,127669,127557,127306,127080,127013,126996,127036,127109,127182,127261,127334,127408,127505,127583,127673,127755,127843,127923,127995,128046,128026,127806,127561,127420,127363,127381,127402,127452,127495,127522,127533,127566,127638,127715,127730,127759,127813,127867,127894,127930,127932,127718,127458,127262,127168,127137,127206,127293,127299,127220,127174,127141,127164,127258,127389,127551,127699,127822,127832,127636,127338,127085,126934,126852,126865,126946,127008,127067,127156,127267,127389,127512,127608,127688,127767,127828,127868,127027,127049,127105,127174,127212,127231,127249,127298,127362,127425,127495,127555,127638,127674,127680,127550,127256,127008,126887,126820,126825,126878,126950,127003,127025,127067,127131,127203,127259,127355,127431,127467,127466,127506,127470,127266,127066,126937,126896,126907,126947,126992,127016,127037,127076,127129,127175,127231,127274,127305,127359,127410,127386,127202,126999,126879,126848,126836,126854,126918,126990,127020,127035,127084,127148,127220,127277,127319,127390,127448,127511,127529,127442,127244,127077,126970,126918,126925,126979,127054,127100,127130,127137,127137,127173,127235,127296,127331,127359,127401,127450,127486,127477,127308,127112,126973,126921,126903,126903,126920,127072,127094,127121,127174,127220,127294,127360,127332,127138,126924,126817,126765,126747,126774,126819,126837,126840,126849,126884,126955,127023,127080,127123,127172,127228,127225,127033,126796,126652,126626,126616,126669,126775,126863,126900,126898,126906,126956,127039,127097,127128,127181,127243,127317,127363,127199,126971,126823,126767,126769,126813,126933,127033,127091,127145,127184,127215,127326,127461,127556,127625,127695,127734,127723,127579,127344,127099,126959,127323,127121,126952,126856,126806,126802,126826,126867,126906,126905,126916,126922,126945,126993,127020,127066,127115,127180,127174,127005,126839,126746,126710,126697,126693,126699,126705,126675,126664,126664,126696,126727,126853,126891,126912,126833,126682,126556,126500,126488,126491,126505,126531,126531,126554,126570,126614,126645,126686,126724,126790,126850,126882,126792,126617,126479,126412,126376,126383,126397,126393,126379,126378,126402,126424,126446,126473,126544,126596,126650,126717,126647,126466,126351,126281,126246,126243,126312,126366,126365,126351,126391,126436,126500,126578,126611,126645,126687,126734,126675,126466,126238,126077,125976,125897,125901,125957,126030,126078,126124,126211,126300,126377,126452,126541,126609,126666,126682,126549,126350,126249,126249,126306,126440,126552,126605,126669,126749,126781,126815,126903,126969,127050,127065,127083,127036,126870,126652,126492,126462,126470,126520,126764,126811,126829,126878,126925,126984,127003,126929,126722,126529,126467,126448,126455,126511,126593,126669,126694,126719,126751,126818,126904,127011,127127,127202,127272,127324,127186,127008,126889,126831,126819,126846,126895,126955,126972,126991,126979,126996,127065,127111,127181,127230,127283,127321,127247,127101,127005,126964,127004,127034,127125,127157,127133,127139,127141,127229,127244,127265,127283,127306,127373,127353,127222,127042,126945,126937,126936,126949,126985,127005,127025,127060,127112,127185,127238,127266,127293,127344,127384,127377,127229,127036,126911,126893,126874,126903,126924,126993,126964,127003,127082,127074,127098,127152,127237,127281,127348,127383,127332,127182,127185,127211,127249,127279,127305,127354,127409,127437,127489,127533,127486,127268,127084,126938,126908,126905,126998,127063,127082,127093,127108,127159,127223,127293,127345,127394,127434,127452,127304,127054,126860,126770,126775,126804,126882,126968,127004,127052,127078,127126,127237,127346,127454,127533,127593,127616,127583,127362,127114,126994,126924,126878,126882,126940,126983,126996,126981,126956,126974,127029,127091,127112,127141,127168,127205,127195,127063,126844,126358,126352,126391,126454,126530,126590,126646,126695,126726,126765,126827,126877,126921,126971,127013,127036,126988,126832,126692,126625,126592,126618,126659,126692,126710,126737,126751,126778,126814,126838,126900,126932,127005,126879,126703,126596,126558,126528,126571,126627,126668,126698,126728,126736,126757,126809,126864,126872,126896,126931,126910,126787,126602,126487,126437,126435,126469,126522,126584,126611,126659,126717,126773,126840,126909,126975,127026,127087,127155,127085,126903,126737,126670,126674,126721,126788,126851,126887,126917,126935,126975,127015,127062,127123,127142,127175,127221,127226,127140,126918,126751,126673,126674,126693,126763,126797,126825,126863,126902,126942,127136,127146,127206,127228,127232,127247,127274,127314,127340,127367,127396,127438,127458,127466,127478,127380,127192,127086,127051,127036,127040,127087,127151,127197,127210,127210,127234,127273,127343,127423,127536,127627,127472,127291,127208,127208,127230,127309,127357,127386,127398,127421,127455,127484,127524,127562,127598,127640,127645,127510,127275,127109,127031,126993,126995,127024,127061,127107,127147,127192,127244,127278,127324,127398,127466,127523,127540,127419,127207,127071,127032,127037,127092,127188,127258,127297,127309,127329,127399,127442,127451,127438,127437,127483,127530,127468,127280,127087,126991,126980,126994,127037,127086,127112,127140,127186,127259,127310,127371,127428
